6.70031666666667	147178
6.70065	147191
6.70098333333333	147181
6.70131666666667	147118
6.70165	147056
6.70198333333333	147041
6.70231666666667	147082
6.70265	147097
6.70298333333333	147214
6.70331666666667	147252
6.70365	147241
6.70398333333333	147067
6.70431666666667	146970
6.70465	146955
6.70498333333333	147027
6.70531666666667	147134
6.70565	147204
6.70598333333333	147179
6.70631666666667	147133
6.70665	147042
6.70698333333333	147119
6.70731666666667	147130
6.70765	147103
6.70798333333333	147078
6.70831666666667	147000
6.70865	147044
6.70898333333333	146990
6.70931666666667	147032
6.70965	147059
6.70998333333333	147076
6.71031666666667	147097
6.71065	147042
6.71098333333333	147032
6.71131666666667	147000
6.71165	146965
6.71198333333333	146992
6.71231666666667	146927
6.71265	146895
6.71298333333333	146878
6.71331666666667	146840
6.71365	146948
6.71398333333333	146831
6.71431666666667	146860
6.71465	146906
6.71498333333333	146931
6.71531666666667	146974
6.71565	146835
6.71598333333333	146829
6.71631666666667	146779
6.71665	146759
6.71698333333333	146819
6.71731666666667	146798
6.71765	146888
6.71798333333333	146885
6.71831666666667	146919
6.71865	146881
6.71898333333333	146822
6.71931666666667	146821
6.71965	146799
6.71998333333333	146806
6.72031666666667	146773
6.72065	146771
6.72098333333333	146762
6.72131666666667	146740
6.72165	146766
6.72198333333333	146820
6.72231666666667	146932
6.72265	146874
6.72298333333333	146792
6.72331666666667	146778
6.72365	146770
6.72398333333333	146793
6.72431666666667	146703
6.72465	146761
6.72498333333333	146764
6.72531666666667	146810
6.72565	146794
6.72598333333333	146807
6.72631666666667	146827
6.72665	146754
6.72698333333333	146689
6.72731666666667	146586
6.72765	146578
6.72798333333333	146616
6.72831666666667	146646
6.72865	146589
6.72898333333333	146555
6.72931666666667	146569
6.72965	146667
6.72998333333333	146627
6.73031666666667	146521
6.73065	146495
6.73098333333333	146470
6.73131666666667	146501
6.73165	146461
6.73198333333333	146433
6.73231666666667	146418
6.73265	146381
6.73298333333333	146505
6.73331666666667	146514
6.73365	146595
6.73398333333333	146495
6.73431666666667	146476
6.73465	146389
6.73498333333333	146389
6.73531666666667	146398
6.73565	146420
6.73598333333333	146484
6.73631666666667	146490
6.73665	146495
6.73698333333333	146429
6.73731666666667	146278
6.73765	146179
6.73798333333333	146063
6.73831666666667	146103
6.73865	146055
6.73898333333333	146145
6.73931666666667	146258
6.73965	146333
6.73998333333333	146359
6.74031666666667	146221
6.74065	146194
6.74098333333333	146059
6.74131666666667	146111
6.74165	146111
6.74198333333333	146082
6.74231666666667	146050
6.74265	145992
6.74298333333333	145998
6.74331666666667	146008
6.74365	145993
6.74398333333333	146033
6.74431666666667	145989
6.74465	146060
6.74498333333333	146054
6.74531666666667	146008
6.74565	146001
6.74598333333333	146020
6.74631666666667	146063
6.74665	146025
6.74698333333333	145984
6.74731666666667	145930
6.74765	145912
6.74798333333333	145912
6.74831666666667	145897
6.74865	145846
6.74898333333333	145802
6.74931666666667	145864
6.74965	145861
6.74998333333333	145883
6.75031666666667	145802
6.75065	145792
6.75098333333333	145788
6.75131666666667	145792
6.75165	145855
6.75198333333333	145769
6.75231666666667	145790
6.75265	145797
6.75298333333333	145771
6.75331666666667	145680
6.75365	145580
6.75398333333333	145593
6.75431666666667	145587
6.75465	145520
6.75498333333333	145484
6.75531666666667	145510
6.75565	145551
6.75598333333333	145558
6.75631666666667	145537
6.75665	145517
6.75698333333333	145523
6.75731666666667	145520
6.75765	145635
6.75798333333333	145654
6.75831666666667	145691
6.75865	145571
6.75898333333333	145489
6.75931666666667	145524
6.75965	145513
6.75998333333333	145612
6.76031666666667	145565
6.76065	145590
6.76098333333333	145569
6.76131666666667	145587
6.76165	145648
6.76198333333333	145623
6.76231666666667	145550
6.76265	145424
6.76298333333333	145367
6.76331666666667	145210
6.76365	145177
6.76398333333333	145260
6.76431666666667	145402
6.76465	145489
6.76498333333333	145465
6.76531666666667	145523
6.76565	145484
6.76598333333333	145471
6.76631666666667	145402
6.76665	145380
6.76698333333333	145359
6.76731666666667	145309
6.76765	145308
6.76798333333333	145334
6.76831666666667	145373
6.76865	145358
6.76898333333333	145256
6.76931666666667	145183
6.76965	145087
6.76998333333333	145071
6.77031666666667	145087
6.77065	145119
6.77098333333333	145095
6.77131666666667	144998
6.77165	144992
6.77198333333333	145037
6.77231666666667	145100
6.77265	145133
6.77298333333333	145132
6.77331666666667	145211
6.77365	145164
6.77398333333333	145051
6.77431666666667	144958
6.77465	145056
6.77498333333333	145189
6.77531666666667	145227
6.77565	145170
6.77598333333333	145073
6.77631666666667	144981
6.77665	144912
6.77698333333333	144924
6.77731666666667	145043
6.77765	145060
6.77798333333333	145073
6.77831666666667	144977
6.77865	144986
6.77898333333333	144958
6.77931666666667	144948
6.77965	144986
6.77998333333333	145030
6.78031666666667	145083
6.78065	145050
6.78098333333333	144975
6.78131666666667	145026
6.78165	145008
6.78198333333333	145082
6.78231666666667	145036
6.78265	145013
6.78298333333333	145019
6.78331666666667	144944
6.78365	144910
6.78398333333333	144846
6.78431666666667	144885
6.78465	144954
6.78498333333333	144937
6.78531666666667	144926
6.78565	144854
6.78598333333333	144818
6.78631666666667	144896
6.78665	144923
6.78698333333333	145032
6.78731666666667	144924
6.78765	144953
6.78798333333333	144920
6.78831666666667	144945
6.78865	144933
6.78898333333333	144903
6.78931666666667	144820
6.78965	144815
6.78998333333333	144846
6.79031666666667	144924
6.79065	144874
6.79098333333333	144778
6.79131666666667	144672
6.79165	144647
6.79198333333333	144693
6.79231666666667	144730
6.79265	144725
6.79298333333333	144647
6.79331666666667	144611
6.79365	144597
6.79398333333333	144612
6.79431666666667	144614
6.79465	144617
6.79498333333333	144659
6.79531666666667	144653
6.79565	144617
6.79598333333333	144604
6.79631666666667	144642
6.79665	144656
6.79698333333333	144576
6.79731666666667	144602
6.79765	144667
6.79798333333333	144750
6.79831666666667	144719
6.79865	144585
6.79898333333333	144494
6.79931666666667	144464
6.79965	144538
6.79998333333333	144581
6.80031666666667	144525
6.80065	144537
6.80098333333333	144527
6.80131666666667	144537
6.80165	144543
6.80198333333333	144510
6.80231666666667	144494
6.80265	144475
6.80298333333333	144435
6.80331666666667	144436
6.80365	144302
6.80398333333333	144278
6.80431666666667	144267
6.80465	144226
6.80498333333333	144295
6.80531666666667	144253
6.80565	144249
6.80598333333333	144155
6.80631666666667	144146
6.80665	144165
6.80698333333333	144094
6.80731666666667	144098
6.80765	144182
6.80798333333333	144264
6.80831666666667	144253
6.80865	144094
6.80898333333333	144043
6.80931666666667	144063
6.80965	144120
6.80998333333333	144121
6.81031666666667	144031
6.81065	144054
6.81098333333333	144064
6.81131666666667	144075
6.81165	144101
6.81198333333333	144142
6.81231666666667	144182
6.81265	144150
6.81298333333333	144134
6.81331666666667	144123
6.81365	144056
6.81398333333333	144001
6.81431666666667	143931
6.81465	143931
6.81498333333333	143911
6.81531666666667	143839
6.81565	143841
6.81598333333333	143854
6.81631666666667	143986
6.81665	144005
6.81698333333333	143964
6.81731666666667	143908
6.81765	143909
6.81798333333333	143914
6.81831666666667	143865
6.81865	143850
6.81898333333333	143866
6.81931666666667	143892
6.81965	143848
6.81998333333333	143791
6.82031666666667	143848
6.82065	143844
6.82098333333333	143914
6.82131666666667	143867
6.82165	143878
6.82198333333333	143869
6.82231666666667	143859
6.82265	143863
6.82298333333333	143793
6.82331666666667	143802
6.82365	143839
6.82398333333333	143889
6.82431666666667	143936
6.82465	143869
6.82498333333333	143900
6.82531666666667	143840
6.82565	143816
6.82598333333333	143758
6.82631666666667	143691
6.82665	143782
6.82698333333333	143800
6.82731666666667	143840
6.82765	143817
6.82798333333333	143759
6.82831666666667	143715
6.82865	143692
6.82898333333333	143653
6.82931666666667	143657
6.82965	143612
6.82998333333333	143639
6.83031666666667	143667
6.83065	143657
6.83098333333333	143684
6.83131666666667	143659
6.83165	143662
6.83198333333333	143613
6.83231666666667	143672
6.83265	143670
6.83298333333333	143660
6.83331666666667	143556
6.83365	143498
6.83398333333333	143494
6.83431666666667	143510
6.83465	143514
6.83498333333333	143464
6.83531666666667	143442
6.83565	143346
6.83598333333333	143249
6.83631666666667	143179
6.83665	143257
6.83698333333333	143378
6.83731666666667	143374
6.83765	143352
6.83798333333333	143266
6.83831666666667	143296
6.83865	143255
6.83898333333333	143274
6.83931666666667	143245
6.83965	143288
6.83998333333333	143306
6.84031666666667	143374
6.84065	143339
6.84098333333333	143372
6.84131666666667	143289
6.84165	143302
6.84198333333333	143238
6.84231666666667	143198
6.84265	143221
6.84298333333333	143303
6.84331666666667	143379
6.84365	143319
6.84398333333333	143182
6.84431666666667	143019
6.84465	142974
6.84498333333333	143012
6.84531666666667	143185
6.84565	143236
6.84598333333333	143247
6.84631666666667	143190
6.84665	143101
6.84698333333333	143049
6.84731666666667	143006
6.84765	143079
6.84798333333333	143097
6.84831666666667	143127
6.84865	143064
6.84898333333333	143031
6.84931666666667	142939
6.84965	142957
6.84998333333333	142924
6.85031666666667	142944
6.85065	142889
6.85098333333333	142804
6.85131666666667	142771
6.85165	142774
6.85198333333333	142921
6.85231666666667	142955
6.85265	142920
6.85298333333333	142875
6.85331666666667	142865
6.85365	142925
6.85398333333333	142854
6.85431666666667	142864
6.85465	142806
6.85498333333333	142869
6.85531666666667	142873
6.85565	142887
6.85598333333333	142877
6.85631666666667	142847
6.85665	142876
6.85698333333333	142772
6.85731666666667	142796
6.85765	142747
6.85798333333333	142879
6.85831666666667	142778
6.85865	142749
6.85898333333333	142754
6.85931666666667	142785
6.85965	142855
6.85998333333333	142802
6.86031666666667	142843
6.86065	142801
6.86098333333333	142743
6.86131666666667	142824
6.86165	142797
6.86198333333333	142866
6.86231666666667	142791
6.86265	142846
6.86298333333333	142738
6.86331666666667	142627
6.86365	142579
6.86398333333333	142656
6.86431666666667	142757
6.86465	142843
6.86498333333333	142838
6.86531666666667	142843
6.86565	142852
6.86598333333333	142846
6.86631666666667	142869
6.86665	142938
6.86698333333333	143046
6.86731666666667	143141
6.86765	143223
6.86798333333333	143363
6.86831666666667	143450
6.86865	143428
6.86898333333333	143543
6.86931666666667	143645
6.86965	143835
6.86998333333333	143962
6.87031666666667	144151
6.87065	144404
6.87098333333333	144605
6.87131666666667	144849
6.87165	145131
6.87198333333333	145438
6.87231666666667	145890
6.87265	146297
6.87298333333333	146921
6.87331666666667	147558
6.87365	148198
6.87398333333333	148951
6.87431666666667	149689
6.87465	150580
6.87498333333333	151434
6.87531666666667	152338
6.87565	153518
6.87598333333333	154730
6.87631666666667	156149
6.87665	157555
6.87698333333333	159121
6.87731666666667	160879
6.87765	162788
6.87798333333333	164858
6.87831666666667	167102
6.87865	169524
6.87898333333333	172153
6.87931666666667	174953
6.87965	178065
6.87998333333333	181461
6.88031666666667	185028
6.88065	188758
6.88098333333333	192706
6.88131666666667	197063
6.88165	201648
6.88198333333333	206505
6.88231666666667	211790
6.88265	217547
6.88298333333333	223745
6.88331666666667	230042
6.88365	236708
6.88398333333333	243735
6.88431666666667	251345
6.88465	259282
6.88498333333333	267637
6.88531666666667	276461
6.88565	285754
6.88598333333333	295497
6.88631666666667	305787
6.88665	316457
6.88698333333333	327700
6.88731666666667	339359
6.88765	351820
6.88798333333333	364741
6.88831666666667	378238
6.88865	392101
6.88898333333333	406574
6.88931666666667	421647
6.88965	437305
6.88998333333333	453585
6.89031666666667	470377
6.89065	487967
6.89098333333333	506225
6.89131666666667	525282
6.89165	544873
6.89198333333333	565165
6.89231666666667	586074
6.89265	607515
6.89298333333333	629605
6.89331666666667	652333
6.89365	676132
6.89398333333333	700543
6.89431666666667	725601
6.89465	751130
6.89498333333333	777621
6.89531666666667	804849
6.89565	832786
6.89598333333333	861229
6.89631666666667	890411
6.89665	920497
6.89698333333333	951224
6.89731666666667	982947
6.89765	1015122
6.89798333333333	1048369
6.89831666666667	1082214
6.89865	1117001
6.89898333333333	1152162
6.89931666666667	1188028
6.89965	1224684
6.89998333333333	1262301
6.90031666666667	1300445
6.90065	1339257
6.90098333333333	1378882
6.90131666666667	1419449
6.90165	1460798
6.90198333333333	1502796
6.90231666666667	1545461
6.90265	1588984
6.90298333333333	1633385
6.90331666666667	1678295
6.90365	1723731
6.90398333333333	1769699
6.90431666666667	1816383
6.90465	1863567
6.90498333333333	1911337
6.90531666666667	1959887
6.90565	2008757
6.90598333333333	2057961
6.90631666666667	2107486
6.90665	2157743
6.90698333333333	2208624
6.90731666666667	2259614
6.90765	2311153
6.90798333333333	2362834
6.90831666666667	2414802
6.90865	2466634
6.90898333333333	2518156
6.90931666666667	2570231
6.90965	2622208
6.90998333333333	2674848
6.91031666666667	2726829
6.91065	2778755
6.91098333333333	2829779
6.91131666666667	2880846
6.91165	2931340
6.91198333333333	2981186
6.91231666666667	3030096
6.91265	3077813
6.91298333333333	3124999
6.91331666666667	3170809
6.91365	3215731
6.91398333333333	3259424
6.91431666666667	3302036
6.91465	3343245
6.91498333333333	3382077
6.91531666666667	3419341
6.91565	3454477
6.91598333333333	3487988
6.91631666666667	3519159
6.91665	3548124
6.91698333333333	3574752
6.91731666666667	3598994
6.91765	3621218
6.91798333333333	3640734
6.91831666666667	3657666
6.91865	3671306
6.91898333333333	3682574
6.91931666666667	3690899
6.91965	3696792
6.91998333333333	3699224
6.92031666666667	3698597
6.92065	3694556
6.92098333333333	3687879
6.92131666666667	3678316
6.92165	3665964
6.92198333333333	3650752
6.92231666666667	3632368
6.92265	3610965
6.92298333333333	3586596
6.92331666666667	3559684
6.92365	3530582
6.92398333333333	3498687
6.92431666666667	3464239
6.92465	3426832
6.92498333333333	3387469
6.92531666666667	3345840
6.92565	3302215
6.92598333333333	3256458
6.92631666666667	3208803
6.92665	3159194
6.92698333333333	3108105
6.92731666666667	3055558
6.92765	3001825
6.92798333333333	2946709
6.92831666666667	2890599
6.92865	2833587
6.92898333333333	2776207
6.92931666666667	2718207
6.92965	2659385
6.92998333333333	2599888
6.93031666666667	2539946
6.93065	2480388
6.93098333333333	2420796
6.93131666666667	2361528
6.93165	2302462
6.93198333333333	2243353
6.93231666666667	2184488
6.93265	2126139
6.93298333333333	2068464
6.93331666666667	2011556
6.93365	1955076
6.93398333333333	1899524
6.93431666666667	1844730
6.93465	1791115
6.93498333333333	1738438
6.93531666666667	1686574
6.93565	1635789
6.93598333333333	1586258
6.93631666666667	1538068
6.93665	1490924
6.93698333333333	1444713
6.93731666666667	1399261
6.93765	1354772
6.93798333333333	1311651
6.93831666666667	1270127
6.93865	1229955
6.93898333333333	1190684
6.93931666666667	1152584
6.93965	1115614
6.93998333333333	1079741
6.94031666666667	1044832
6.94065	1011089
6.94098333333333	978669
6.94131666666667	947369
6.94165	916887
6.94198333333333	887508
6.94231666666667	859384
6.94265	832496
6.94298333333333	806383
6.94331666666667	781100
6.94365	756648
6.94398333333333	733230
6.94431666666667	710671
6.94465	689018
6.94498333333333	668177
6.94531666666667	648067
6.94565	628703
6.94598333333333	610220
6.94631666666667	592709
6.94665	575746
6.94698333333333	559416
6.94731666666667	543650
6.94765	528761
6.94798333333333	514504
6.94831666666667	500620
6.94865	487338
6.94898333333333	474582
6.94931666666667	462544
6.94965	450807
6.94998333333333	439657
6.95031666666667	429057
6.95065	418998
6.95098333333333	409324
6.95131666666667	399983
6.95165	391202
6.95198333333333	382734
6.95231666666667	374758
6.95265	367038
6.95298333333333	359558
6.95331666666667	352343
6.95365	345465
6.95398333333333	339006
6.95431666666667	332869
6.95465	326938
6.95498333333333	321321
6.95531666666667	315812
6.95565	310571
6.95598333333333	305571
6.95631666666667	300807
6.95665	296255
6.95698333333333	291717
6.95731666666667	287449
6.95765	283426
6.95798333333333	279775
6.95831666666667	276192
6.95865	272724
6.95898333333333	269286
6.95931666666667	266046
6.95965	262941
6.95998333333333	259898
6.96031666666667	257015
6.96065	254298
6.96098333333333	251741
6.96131666666667	249357
6.96165	246885
6.96198333333333	244590
6.96231666666667	242326
6.96265	240197
6.96298333333333	238231
6.96331666666667	236149
6.96365	234314
6.96398333333333	232447
6.96431666666667	230814
6.96465	229154
6.96498333333333	227431
6.96531666666667	225871
6.96565	224297
6.96598333333333	222873
6.96631666666667	221448
6.96665	220105
6.96698333333333	218902
6.96731666666667	217602
6.96765	216382
6.96798333333333	215138
6.96831666666667	214063
6.96865	213041
6.96898333333333	211927
6.96931666666667	210744
6.96965	209607
6.96998333333333	208645
6.97031666666667	207711
6.97065	206737
6.97098333333333	205879
6.97131666666667	205105
6.97165	204411
6.97198333333333	203648
6.97231666666667	202910
6.97265	202141
6.97298333333333	201450
6.97331666666667	200705
6.97365	199974
6.97398333333333	199210
6.97431666666667	198418
6.97465	197787
6.97498333333333	197180
6.97531666666667	196742
6.97565	196165
6.97598333333333	195599
6.97631666666667	194991
6.97665	194432
6.97698333333333	193889
6.97731666666667	193296
6.97765	192714
6.97798333333333	192193
6.97831666666667	191719
6.97865	191291
6.97898333333333	190849
6.97931666666667	190444
6.97965	190047
6.97998333333333	189489
6.98031666666667	188916
6.98065	188340
6.98098333333333	187979
6.98131666666667	187705
6.98165	187300
6.98198333333333	186913
6.98231666666667	186457
6.98265	186184
6.98298333333333	185741
6.98331666666667	185346
6.98365	184863
6.98398333333333	184485
6.98431666666667	184018
6.98465	183783
6.98498333333333	183482
6.98531666666667	183195
6.98565	182757
6.98598333333333	182359
6.98631666666667	182144
6.98665	181916
6.98698333333333	181705
6.98731666666667	181368
6.98765	181044
6.98798333333333	180718
6.98831666666667	180436
6.98865	180152
6.98898333333333	179962
6.98931666666667	179658
6.98965	179318
6.98998333333333	178935
6.99031666666667	178703
6.99065	178517
6.99098333333333	178288
6.99131666666667	177996
6.99165	177654
6.99198333333333	177341
6.99231666666667	177071
6.99265	176804
6.99298333333333	176592
6.99331666666667	176387
6.99365	176285
6.99398333333333	176150
6.99431666666667	175886
6.99465	175673
6.99498333333333	175365
6.99531666666667	175213
6.99565	174930
6.99598333333333	174733
6.99631666666667	174471
6.99665	174301
6.99698333333333	174035
6.99731666666667	173781
6.99765	173560
6.99798333333333	173417
6.99831666666667	173332
6.99865	173073
6.99898333333333	172905
6.99931666666667	172629
6.99965	172528
6.99998333333333	172305
7.00031666666667	172086
7.00065	171794
7.00098333333333	171585
7.00131666666667	171386
7.00165	171224
7.00198333333333	171001
7.00231666666667	170823
7.00265	170650
7.00298333333333	170445
7.00331666666667	170235
7.00365	169984
7.00398333333333	169909
7.00431666666667	169789
7.00465	169741
7.00498333333333	169697
7.00531666666667	169518
7.00565	169257
7.00598333333333	168893
7.00631666666667	168707
7.00665	168579
7.00698333333333	168327
7.00731666666667	168170
7.00765	167990
7.00798333333333	167957
7.00831666666667	167861
7.00865	167744
7.00898333333333	167595
7.00931666666667	167427
7.00965	167259
7.00998333333333	167162
7.01031666666667	167068
7.01065	166926
7.01098333333333	166750
7.01131666666667	166567
7.01165	166488
7.01198333333333	166347
7.01231666666667	166258
7.01265	166126
7.01298333333333	165986
7.01331666666667	165820
7.01365	165610
7.01398333333333	165507
7.01431666666667	165331
7.01465	165206
7.01498333333333	165068
7.01531666666667	164991
7.01565	165034
7.01598333333333	165002
7.01631666666667	164951
7.01665	164743
7.01698333333333	164659
7.01731666666667	164490
7.01765	164313
7.01798333333333	164022
7.01831666666667	163893
7.01865	163841
7.01898333333333	163832
7.01931666666667	163736
7.01965	163596
7.01998333333333	163446
7.02031666666667	163302
7.02065	163171
7.02098333333333	163097
7.02131666666667	162964
7.02165	162908
7.02198333333333	162839
7.02231666666667	162895
7.02265	162871
7.02298333333333	162852
7.02331666666667	162761
7.02365	162589
7.02398333333333	162415
7.02431666666667	162270
7.02465	162190
7.02498333333333	162007
7.02531666666667	161925
7.02565	161835
7.02598333333333	161839
7.02631666666667	161685
7.02665	161610
7.02698333333333	161564
7.02731666666667	161556
7.02765	161536
7.02798333333333	161515
7.02831666666667	161464
7.02865	161351
7.02898333333333	161212
7.02931666666667	161168
7.02965	161108
7.02998333333333	161011
7.03031666666667	160952
7.03065	160869
7.03098333333333	160817
7.03131666666667	160661
7.03165	160600
7.03198333333333	160541
7.03231666666667	160451
7.03265	160335
7.03298333333333	160238
7.03331666666667	160200
7.03365	160245
7.03398333333333	160215
7.03431666666667	160163
7.03465	160047
7.03498333333333	160050
7.03531666666667	160107
7.03565	160025
7.03598333333333	159858
7.03631666666667	159750
7.03665	159726
7.03698333333333	159756
7.03731666666667	159616
7.03765	159560
7.03798333333333	159520
7.03831666666667	159546
7.03865	159504
7.03898333333333	159456
7.03931666666667	159493
7.03965	159596
7.03998333333333	159589
7.04031666666667	159512
7.04065	159399
7.04098333333333	159330
7.04131666666667	159202
7.04165	159170
7.04198333333333	159214
7.04231666666667	159230
7.04265	159221
7.04298333333333	159145
7.04331666666667	159175
7.04365	159126
7.04398333333333	159021
7.04431666666667	158940
7.04465	158972
7.04498333333333	158977
7.04531666666667	158878
7.04565	158649
7.04598333333333	158517
7.04631666666667	158490
7.04665	158562
7.04698333333333	158624
7.04731666666667	158614
7.04765	158569
7.04798333333333	158472
7.04831666666667	158398
7.04865	158264
7.04898333333333	158235
7.04931666666667	158181
7.04965	158216
7.04998333333333	158183
7.05031666666667	158121
7.05065	157969
7.05098333333333	157871
7.05131666666667	157872
7.05165	157914
7.05198333333333	157930
7.05231666666667	157936
7.05265	157835
7.05298333333333	157796
7.05331666666667	157627
7.05365	157568
7.05398333333333	157444
7.05431666666667	157437
7.05465	157389
7.05498333333333	157303
7.05531666666667	157122
7.05565	156917
7.05598333333333	156801
7.05631666666667	156757
7.05665	156712
7.05698333333333	156681
7.05731666666667	156654
7.05765	156739
7.05798333333333	156597
7.05831666666667	156443
7.05865	156264
7.05898333333333	156216
7.05931666666667	156216
7.05965	156149
7.05998333333333	156091
7.06031666666667	155952
7.06065	155874
7.06098333333333	155721
7.06131666666667	155639
7.06165	155521
7.06198333333333	155480
7.06231666666667	155471
7.06265	155507
7.06298333333333	155456
7.06331666666667	155340
7.06365	155229
7.06398333333333	155148
7.06431666666667	155009
7.06465	154876
7.06498333333333	154834
7.06531666666667	154720
7.06565	154633
7.06598333333333	154455
7.06631666666667	154357
7.06665	154274
7.06698333333333	154263
7.06731666666667	154278
7.06765	154218
7.06798333333333	154101
7.06831666666667	153984
7.06865	153943
7.06898333333333	153956
7.06931666666667	153983
7.06965	153961
7.06998333333333	153845
7.07031666666667	153790
7.07065	153627
7.07098333333333	153546
7.07131666666667	153455
7.07165	153401
7.07198333333333	153392
7.07231666666667	153335
7.07265	153246
7.07298333333333	153052
7.07331666666667	153075
7.07365	153026
7.07398333333333	153071
7.07431666666667	152850
7.07465	152734
7.07498333333333	152613
7.07531666666667	152658
7.07565	152742
7.07598333333333	152678
7.07631666666667	152528
7.07665	152301
7.07698333333333	152239
7.07731666666667	152179
7.07765	152200
7.07798333333333	152208
7.07831666666667	152215
7.07865	152193
7.07898333333333	152083
7.07931666666667	151922
7.07965	151821
7.07998333333333	151850
7.08031666666667	151945
7.08065	151948
7.08098333333333	151875
7.08131666666667	151740
7.08165	151691
7.08198333333333	151681
7.08231666666667	151688
7.08265	151653
7.08298333333333	151528
7.08331666666667	151481
7.08365	151373
7.08398333333333	151282
7.08431666666667	151145
7.08465	151089
7.08498333333333	151158
7.08531666666667	151245
7.08565	151257
7.08598333333333	151196
7.08631666666667	151141
7.08665	151064
7.08698333333333	151041
7.08731666666667	150922
7.08765	150867
7.08798333333333	150726
7.08831666666667	150649
7.08865	150650
7.08898333333333	150620
7.08931666666667	150666
7.08965	150649
7.08998333333333	150688
7.09031666666667	150600
7.09065	150538
7.09098333333333	150489
7.09131666666667	150427
7.09165	150444
7.09198333333333	150439
7.09231666666667	150551
7.09265	150536
7.09298333333333	150433
7.09331666666667	150406
7.09365	150396
7.09398333333333	150503
7.09431666666667	150425
7.09465	150330
7.09498333333333	150222
7.09531666666667	150247
7.09565	150248
7.09598333333333	150229
7.09631666666667	150166
7.09665	150110
7.09698333333333	150068
7.09731666666667	150022
7.09765	150013
7.09798333333333	150023
7.09831666666667	149948
7.09865	149951
7.09898333333333	149871
7.09931666666667	149873
7.09965	149870
7.09998333333333	149925
7.10031666666667	149871
7.10065	149746
7.10098333333333	149612
7.10131666666667	149649
7.10165	149711
7.10198333333333	149787
7.10231666666667	149695
7.10265	149607
7.10298333333333	149586
7.10331666666667	149577
7.10365	149629
7.10398333333333	149490
7.10431666666667	149492
7.10465	149376
7.10498333333333	149319
7.10531666666667	149315
7.10565	149328
7.10598333333333	149342
7.10631666666667	149200
7.10665	149012
7.10698333333333	148999
7.10731666666667	149039
7.10765	149199
7.10798333333333	149198
7.10831666666667	149173
7.10865	149039
7.10898333333333	148929
7.10931666666667	148819
7.10965	148707
7.10998333333333	148669
7.11031666666667	148637
7.11065	148672
7.11098333333333	148593
7.11131666666667	148520
7.11165	148387
7.11198333333333	148340
7.11231666666667	148340
7.11265	148382
7.11298333333333	148398
7.11331666666667	148283
7.11365	148257
7.11398333333333	148234
7.11431666666667	148234
7.11465	148110
7.11498333333333	147971
7.11531666666667	147916
7.11565	147886
7.11598333333333	147891
7.11631666666667	147888
7.11665	147928
7.11698333333333	147933
7.11731666666667	147869
7.11765	147793
7.11798333333333	147786
7.11831666666667	147793
7.11865	147762
7.11898333333333	147679
7.11931666666667	147602
7.11965	147613
7.11998333333333	147631
7.12031666666667	147668
7.12065	147569
7.12098333333333	147544
7.12131666666667	147556
7.12165	147619
7.12198333333333	147529
7.12231666666667	147535
7.12265	147522
7.12298333333333	147563
7.12331666666667	147514
7.12365	147498
7.12398333333333	147517
7.12431666666667	147459
7.12465	147455
7.12498333333333	147438
7.12531666666667	147438
7.12565	147399
7.12598333333333	147319
7.12631666666667	147392
7.12665	147484
7.12698333333333	147616
7.12731666666667	147676
7.12765	147714
7.12798333333333	147723
7.12831666666667	147689
7.12865	147647
7.12898333333333	147691
7.12931666666667	147695
7.12965	147727
7.12998333333333	147726
7.13031666666667	147740
7.13065	147769
7.13098333333333	147667
7.13131666666667	147675
7.13165	147625
7.13198333333333	147720
7.13231666666667	147777
7.13265	147751
7.13298333333333	147790
7.13331666666667	147781
7.13365	147815
7.13398333333333	147866
7.13431666666667	147821
7.13465	147887
7.13498333333333	147835
7.13531666666667	147888
7.13565	147866
7.13598333333333	147810
7.13631666666667	147822
7.13665	147869
7.13698333333333	147904
7.13731666666667	147832
7.13765	147826
7.13798333333333	147784
7.13831666666667	147770
7.13865	147618
7.13898333333333	147646
7.13931666666667	147628
7.13965	147686
7.13998333333333	147595
7.14031666666667	147606
7.14065	147647
7.14098333333333	147720
7.14131666666667	147710
7.14165	147651
7.14198333333333	147597
7.14231666666667	147563
7.14265	147486
7.14298333333333	147350
7.14331666666667	147343
7.14365	147337
7.14398333333333	147405
7.14431666666667	147296
7.14465	147276
7.14498333333333	147216
7.14531666666667	147141
7.14565	147117
7.14598333333333	147081
7.14631666666667	147050
7.14665	146942
7.14698333333333	146826
7.14731666666667	146781
7.14765	146742
7.14798333333333	146667
7.14831666666667	146600
7.14865	146480
7.14898333333333	146423
7.14931666666667	146326
7.14965	146255
7.14998333333333	146257
7.15031666666667	146244
7.15065	146233
7.15098333333333	146100
7.15131666666667	146061
7.15165	146076
7.15198333333333	146065
7.15231666666667	145977
7.15265	145806
7.15298333333333	145711
7.15331666666667	145619
7.15365	145591
7.15398333333333	145600
7.15431666666667	145625
7.15465	145521
7.15498333333333	145430
7.15531666666667	145373
7.15565	145373
7.15598333333333	145367
7.15631666666667	145300
7.15665	145248
7.15698333333333	145093
7.15731666666667	144981
7.15765	144895
7.15798333333333	144896
7.15831666666667	144903
7.15865	144841
7.15898333333333	144787
7.15931666666667	144690
7.15965	144613
7.15998333333333	144535
7.16031666666667	144515
7.16065	144517
7.16098333333333	144503
7.16131666666667	144455
7.16165	144445
7.16198333333333	144400
7.16231666666667	144336
7.16265	144339
7.16298333333333	144330
7.16331666666667	144205
7.16365	144117
7.16398333333333	144013
7.16431666666667	144087
7.16465	144123
7.16498333333333	144188
7.16531666666667	144219
7.16565	144150
7.16598333333333	144144
7.16631666666667	144090
7.16665	144075
7.16698333333333	143918
7.16731666666667	143848
7.16765	143731
7.16798333333333	143710
7.16831666666667	143721
7.16865	143737
7.16898333333333	143780
7.16931666666667	143757
7.16965	143756
7.16998333333333	143739
7.17031666666667	143754
7.17065	143638
7.17098333333333	143581
7.17131666666667	143554
7.17165	143658
7.17198333333333	143737
7.17231666666667	143664
7.17265	143643
7.17298333333333	143503
7.17331666666667	143511
7.17365	143472
7.17398333333333	143483
7.17431666666667	143420
7.17465	143398
7.17498333333333	143399
7.17531666666667	143432
7.17565	143487
7.17598333333333	143498
7.17631666666667	143496
7.17665	143451
7.17698333333333	143423
7.17731666666667	143394
7.17765	143354
7.17798333333333	143368
7.17831666666667	143319
7.17865	143280
7.17898333333333	143188
7.17931666666667	143161
7.17965	143216
7.17998333333333	143258
7.18031666666667	143270
7.18065	143195
7.18098333333333	143169
7.18131666666667	143158
7.18165	143143
7.18198333333333	143138
7.18231666666667	143136
7.18265	143143
7.18298333333333	143153
7.18331666666667	143105
7.18365	143069
7.18398333333333	143021
7.18431666666667	143001
7.18465	142997
7.18498333333333	143032
7.18531666666667	143084
7.18565	143075
7.18598333333333	143005
7.18631666666667	142954
7.18665	142928
7.18698333333333	142953
7.18731666666667	142953
7.18765	142932
7.18798333333333	142931
7.18831666666667	142931
7.18865	142988
7.18898333333333	143067
7.18931666666667	143104
7.18965	143105
7.18998333333333	143006
7.19031666666667	142984
7.19065	142891
7.19098333333333	142762
7.19131666666667	142703
7.19165	142705
7.19198333333333	142733
7.19231666666667	142681
7.19265	142636
7.19298333333333	142676
7.19331666666667	142736
7.19365	142834
7.19398333333333	142909
7.19431666666667	142936
7.19465	142863
7.19498333333333	142803
7.19531666666667	142662
7.19565	142642
7.19598333333333	142572
7.19631666666667	142571
7.19665	142496
7.19698333333333	142491
7.19731666666667	142580
7.19765	142596
7.19798333333333	142621
7.19831666666667	142573
7.19865	142598
7.19898333333333	142606
7.19931666666667	142613
7.19965	142638
7.19998333333333	142651
7.20031666666667	142624
7.20065	142575
7.20098333333333	142502
7.20131666666667	142442
7.20165	142394
7.20198333333333	142329
7.20231666666667	142368
7.20265	142427
7.20298333333333	142473
7.20331666666667	142489
7.20365	142397
7.20398333333333	142373
7.20431666666667	142342
7.20465	142372
7.20498333333333	142358
7.20531666666667	142295
7.20565	142239
7.20598333333333	142233
7.20631666666667	142180
7.20665	142206
7.20698333333333	142197
7.20731666666667	142253
7.20765	142263
7.20798333333333	142265
7.20831666666667	142290
7.20865	142229
7.20898333333333	142188
7.20931666666667	142143
7.20965	142123
7.20998333333333	142070
7.21031666666667	142049
7.21065	142097
7.21098333333333	142115
7.21131666666667	142092
7.21165	142097
7.21198333333333	142098
7.21231666666667	142090
7.21265	142080
7.21298333333333	142058
7.21331666666667	142031
7.21365	141989
7.21398333333333	142078
7.21431666666667	142120
7.21465	142142
7.21498333333333	142036
7.21531666666667	141893
7.21565	141776
7.21598333333333	141780
7.21631666666667	141909
7.21665	142058
7.21698333333333	142129
7.21731666666667	142075
7.21765	141985
7.21798333333333	141887
7.21831666666667	141873
7.21865	141876
7.21898333333333	141885
7.21931666666667	142011
7.21965	142029
7.21998333333333	142081
7.22031666666667	141967
7.22065	141930
7.22098333333333	141942
7.22131666666667	142029
7.22165	142099
7.22198333333333	142077
7.22231666666667	142050
7.22265	142054
7.22298333333333	142025
7.22331666666667	142046
7.22365	142062
7.22398333333333	142129
7.22431666666667	142183
7.22465	142124
7.22498333333333	142065
7.22531666666667	141961
7.22565	142028
7.22598333333333	142127
7.22631666666667	142142
7.22665	142132
7.22698333333333	142152
7.22731666666667	142177
7.22765	142164
7.22798333333333	142080
7.22831666666667	142083
7.22865	142178
7.22898333333333	142303
7.22931666666667	142389
7.22965	142311
7.22998333333333	142255
7.23031666666667	142319
7.23065	142414
7.23098333333333	142501
7.23131666666667	142462
7.23165	142433
7.23198333333333	142421
7.23231666666667	142433
7.23265	142470
7.23298333333333	142484
7.23331666666667	142540
7.23365	142642
7.23398333333333	142638
7.23431666666667	142576
7.23465	142477
7.23498333333333	142481
7.23531666666667	142537
7.23565	142578
7.23598333333333	142638
7.23631666666667	142663
7.23665	142644
7.23698333333333	142664
7.23731666666667	142703
7.23765	142745
7.23798333333333	142691
7.23831666666667	142570
7.23865	142549
7.23898333333333	142565
7.23931666666667	142578
7.23965	142580
7.23998333333333	142548
7.24031666666667	142548
7.24065	142504
7.24098333333333	142493
7.24131666666667	142521
7.24165	142494
7.24198333333333	142475
7.24231666666667	142421
7.24265	142428
7.24298333333333	142410
7.24331666666667	142347
7.24365	142277
7.24398333333333	142259
7.24431666666667	142312
7.24465	142341
7.24498333333333	142278
7.24531666666667	142238
7.24565	142144
7.24598333333333	142124
7.24631666666667	142057
7.24665	142072
7.24698333333333	142078
7.24731666666667	142021
7.24765	141892
7.24798333333333	141790
7.24831666666667	141769
7.24865	141807
7.24898333333333	141803
7.24931666666667	141759
7.24965	141758
7.24998333333333	141671
7.25031666666667	141652
7.25065	141610
7.25098333333333	141605
7.25131666666667	141650
7.25165	141615
7.25198333333333	141610
7.25231666666667	141541
7.25265	141456
7.25298333333333	141362
7.25331666666667	141312
7.25365	141441
7.25398333333333	141512
7.25431666666667	141479
7.25465	141313
7.25498333333333	141190
7.25531666666667	141133
7.25565	141137
7.25598333333333	141169
7.25631666666667	141170
7.25665	141129
7.25698333333333	141144
7.25731666666667	141178
7.25765	141151
7.25798333333333	141150
7.25831666666667	141064
7.25865	141057
7.25898333333333	141008
7.25931666666667	141010
7.25965	141036
7.25998333333333	140997
7.26031666666667	140908
7.26065	140860
7.26098333333333	140836
7.26131666666667	140854
7.26165	140857
7.26198333333333	140782
7.26231666666667	140714
7.26265	140617
7.26298333333333	140671
7.26331666666667	140626
7.26365	140561
7.26398333333333	140495
7.26431666666667	140483
7.26465	140493
7.26498333333333	140403
7.26531666666667	140375
7.26565	140334
7.26598333333333	140263
7.26631666666667	140217
7.26665	140184
7.26698333333333	140238
7.26731666666667	140243
7.26765	140208
7.26798333333333	140152
7.26831666666667	140081
7.26865	140103
7.26898333333333	140151
7.26931666666667	140143
7.26965	140109
7.26998333333333	140012
7.27031666666667	139932
7.27065	139893
7.27098333333333	139836
7.27131666666667	139881
7.27165	139809
7.27198333333333	139745
7.27231666666667	139631
7.27265	139591
7.27298333333333	139563
7.27331666666667	139552
7.27365	139499
7.27398333333333	139480
7.27431666666667	139439
7.27465	139438
7.27498333333333	139451
7.27531666666667	139483
7.27565	139479
7.27598333333333	139416
7.27631666666667	139343
7.27665	139313
7.27698333333333	139288
7.27731666666667	139311
7.27765	139266
7.27798333333333	139206
7.27831666666667	139154
7.27865	139075
7.27898333333333	139042
7.27931666666667	138950
7.27965	138957
7.27998333333333	138944
7.28031666666667	138902
7.28065	138815
7.28098333333333	138765
7.28131666666667	138765
7.28165	138764
7.28198333333333	138713
7.28231666666667	138694
7.28265	138603
7.28298333333333	138588
7.28331666666667	138619
7.28365	138702
7.28398333333333	138676
7.28431666666667	138547
7.28465	138394
7.28498333333333	138318
7.28531666666667	138259
7.28565	138267
7.28598333333333	138322
7.28631666666667	138370
7.28665	138463
7.28698333333333	138384
7.28731666666667	138282
7.28765	138188
7.28798333333333	138166
7.28831666666667	138127
7.28865	137973
7.28898333333333	137905
7.28931666666667	137867
7.28965	137860
7.28998333333333	137812
7.29031666666667	137817
7.29065	137846
7.29098333333333	137891
7.29131666666667	137926
7.29165	137925
7.29198333333333	137923
7.29231666666667	137881
7.29265	137850
7.29298333333333	137840
7.29331666666667	137821
7.29365	137763
7.29398333333333	137699
7.29431666666667	137654
7.29465	137661
7.29498333333333	137712
7.29531666666667	137716
7.29565	137754
7.29598333333333	137755
7.29631666666667	137834
7.29665	137826
7.29698333333333	137740
7.29731666666667	137618
7.29765	137591
7.29798333333333	137619
7.29831666666667	137680
7.29865	137685
7.29898333333333	137679
7.29931666666667	137679
7.29965	137686
7.29998333333333	137743
